Nadir angle (deg),GPS 2,GPS 3,GPS 4,GPS 5,GPS 6,GPS 7,GPS 8
0,12.7,12.7,11.65,11.65,13.56,13.56,12.6
0.1,12.7,12.7,11.66,11.66,13.56,13.56,12.6
0.2,12.7,12.7,11.66,11.66,13.56,13.56,12.61
0.3,12.7,12.7,11.66,11.66,13.56,13.56,12.61
0.4,12.71,12.71,11.66,11.66,13.56,13.56,12.62
0.5,12.72,12.72,11.67,11.67,13.56,13.56,12.63
0.6,12.73,12.73,11.68,11.68,13.55,13.55,12.64
0.7,12.74,12.74,11.69,11.69,13.54,13.54,12.65
0.8,12.75,12.75,11.7,11.7,13.53,13.53,12.67
0.9,12.77,12.77,11.71,11.71,13.53,13.53,12.68
1,12.78,12.78,11.73,11.73,13.52,13.52,12.7
1.1,12.8,12.8,11.74,11.74,13.51,13.51,12.72
1.2,12.81,12.81,11.76,11.76,13.5,13.5,12.73
1.3,12.83,12.83,11.77,11.77,13.48,13.48,12.75
1.4,12.85,12.85,11.79,11.79,13.47,13.47,12.77
1.5,12.87,12.87,11.82,11.82,13.46,13.46,12.79
1.6,12.88,12.88,11.84,11.84,13.45,13.45,12.81
1.7,12.91,12.91,11.87,11.87,13.43,13.43,12.84
1.8,12.95,12.95,11.89,11.89,13.42,13.42,12.86
1.9,12.98,12.98,11.92,11.92,13.4,13.4,12.89
2,13.01,13.01,11.94,11.94,13.39,13.39,12.91
2.1,13.04,13.04,11.97,11.97,13.38,13.38,12.94
2.2,13.07,13.07,12,12,13.36,13.36,12.96
2.3,13.1,13.1,12.03,12.03,13.35,13.35,12.98
2.4,13.12,13.12,12.07,12.07,13.33,13.33,13.01
2.5,13.15,13.15,12.1,12.1,13.32,13.32,13.04
2.6,13.19,13.19,12.13,12.13,13.31,13.31,13.07
2.7,13.22,13.22,12.17,12.17,13.29,13.29,13.1
2.8,13.26,13.26,12.21,12.21,13.28,13.28,13.13
2.9,13.29,13.29,12.25,12.25,13.26,13.26,13.16
3,13.32,13.32,12.29,12.29,13.25,13.25,13.19
3.1,13.35,13.35,12.33,12.33,13.23,13.23,13.22
3.2,13.39,13.39,12.37,12.37,13.22,13.22,13.25
3.3,13.41,13.41,12.41,12.41,13.21,13.21,13.28
3.4,13.44,13.44,12.45,12.45,13.2,13.2,13.31
3.5,13.47,13.47,12.5,12.5,13.19,13.19,13.35
3.6,13.5,13.5,12.54,12.54,13.18,13.18,13.38
3.7,13.52,13.52,12.58,12.58,13.17,13.17,13.41
3.8,13.55,13.55,12.63,12.63,13.16,13.16,13.44
3.9,13.57,13.57,12.68,12.68,13.15,13.15,13.47
4,13.6,13.6,12.73,12.73,13.16,13.16,13.51
4.1,13.63,13.63,12.78,12.78,13.16,13.16,13.54
4.2,13.65,13.65,12.83,12.83,13.16,13.16,13.58
4.3,13.67,13.67,12.88,12.88,13.16,13.16,13.61
4.4,13.69,13.69,12.93,12.93,13.16,13.16,13.64
4.5,13.72,13.72,12.98,12.98,13.17,13.17,13.67
4.6,13.74,13.74,13.03,13.03,13.17,13.17,13.7
4.7,13.76,13.76,13.09,13.09,13.18,13.18,13.73
4.8,13.78,13.78,13.14,13.14,13.19,13.19,13.76
4.9,13.8,13.8,13.2,13.2,13.2,13.2,13.79
5,13.83,13.83,13.25,13.25,13.21,13.21,13.82
5.1,13.85,13.85,13.3,13.3,13.22,13.22,13.85
5.2,13.87,13.87,13.36,13.36,13.23,13.23,13.88
5.3,13.9,13.9,13.41,13.41,13.25,13.25,13.9
5.4,13.92,13.92,13.47,13.47,13.27,13.27,13.93
5.5,13.95,13.95,13.53,13.53,13.29,13.29,13.96
5.6,13.97,13.97,13.58,13.58,13.31,13.31,13.99
5.7,14,14,13.64,13.64,13.33,13.33,14.02
5.8,14.03,14.03,13.69,13.69,13.36,13.36,14.05
5.9,14.06,14.06,13.75,13.75,13.39,13.39,14.07
6,14.09,14.09,13.8,13.8,13.42,13.42,14.1
6.1,14.13,14.13,13.86,13.86,13.45,13.45,14.13
6.2,14.17,14.17,13.91,13.91,13.48,13.48,14.16
6.3,14.22,14.22,13.96,13.96,13.51,13.51,14.19
6.4,14.26,14.26,14.01,14.01,13.54,13.54,14.21
6.5,14.31,14.31,14.06,14.06,13.58,13.58,14.24
6.6,14.35,14.35,14.11,14.11,13.62,13.62,14.26
6.7,14.39,14.39,14.16,14.16,13.66,13.66,14.29
6.8,14.44,14.44,14.21,14.21,13.69,13.69,14.31
6.9,14.48,14.48,14.25,14.25,13.73,13.73,14.34
7,14.53,14.53,14.3,14.3,13.77,13.77,14.36
7.1,14.57,14.57,14.35,14.35,13.81,13.81,14.39
7.2,14.61,14.61,14.39,14.39,13.86,13.86,14.41
7.3,14.66,14.66,14.44,14.44,13.9,13.9,14.44
7.4,14.69,14.69,14.48,14.48,13.94,13.94,14.46
7.5,14.73,14.73,14.53,14.53,13.98,13.98,14.49
7.6,14.77,14.77,14.57,14.57,14.02,14.02,14.51
7.7,14.8,14.8,14.61,14.61,14.06,14.06,14.54
7.8,14.84,14.84,14.66,14.66,14.11,14.11,14.56
7.9,14.87,14.87,14.69,14.69,14.15,14.15,14.58
8,14.9,14.9,14.73,14.73,14.19,14.19,14.6
8.1,14.93,14.93,14.76,14.76,14.23,14.23,14.62
8.2,14.96,14.96,14.8,14.8,14.27,14.27,14.64
8.3,14.98,14.98,14.83,14.83,14.31,14.31,14.67
8.4,15,15,14.86,14.86,14.34,14.34,14.68
8.5,15.02,15.02,14.9,14.9,14.38,14.38,14.7
8.6,15.04,15.04,14.92,14.92,14.42,14.42,14.72
8.7,15.05,15.05,14.94,14.94,14.46,14.46,14.74
8.8,15.06,15.06,14.97,14.97,14.49,14.49,14.76
8.9,15.08,15.08,14.99,14.99,14.53,14.53,14.77
9,15.09,15.09,15.01,15.01,14.56,14.56,14.79
9.1,15.09,15.09,15.04,15.04,14.6,14.6,14.8
9.2,15.1,15.1,15.06,15.06,14.63,14.63,14.82
9.3,15.1,15.1,15.07,15.07,14.67,14.67,14.83
9.4,15.11,15.11,15.09,15.09,14.69,14.69,14.84
9.5,15.11,15.11,15.1,15.1,14.72,14.72,14.85
9.6,15.11,15.11,15.12,15.12,14.75,14.75,14.86
9.7,15.11,15.11,15.13,15.13,14.77,14.77,14.88
9.8,15.1,15.1,15.15,15.15,14.8,14.8,14.89
9.9,15.1,15.1,15.16,15.16,14.83,14.83,14.89
10,15.1,15.1,15.16,15.16,14.85,14.85,14.9
10.1,15.1,15.1,15.16,15.16,14.86,14.86,14.9
10.2,15.1,15.1,15.16,15.16,14.88,14.88,14.91
10.3,15.09,15.09,15.16,15.16,14.9,14.9,14.92
10.4,15.09,15.09,15.16,15.16,14.92,14.92,14.92
10.5,15.08,15.08,15.16,15.16,14.94,14.94,14.92
10.6,15.08,15.08,15.15,15.15,14.96,14.96,14.93
10.7,15.07,15.07,15.13,15.13,14.97,14.97,14.93
10.8,15.06,15.06,15.12,15.12,14.98,14.98,14.93
10.9,15.05,15.05,15.11,15.11,14.98,14.98,14.93
11,15.04,15.04,15.1,15.1,14.99,14.99,14.93
11.1,15.03,15.03,15.08,15.08,15,15,14.92
11.2,15.01,15.01,15.06,15.06,15,15,14.91
11.3,14.99,14.99,15.05,15.05,15.01,15.01,14.91
11.4,14.96,14.96,15.03,15.03,15.02,15.02,14.9
11.5,14.94,14.94,15.01,15.01,15.01,15.01,14.89
11.6,14.92,14.92,14.98,14.98,15,15,14.88
11.7,14.89,14.89,14.94,14.94,14.99,14.99,14.86
11.8,14.86,14.86,14.91,14.91,14.98,14.98,14.84
11.9,14.83,14.83,14.88,14.88,14.97,14.97,14.82
12,14.8,14.8,14.84,14.84,14.95,14.95,14.81
12.1,14.76,14.76,14.8,14.8,14.94,14.94,14.79
12.2,14.72,14.72,14.76,14.76,14.92,14.92,14.76
12.3,14.68,14.68,14.71,14.71,14.9,14.9,14.73
12.4,14.64,14.64,14.67,14.67,14.88,14.88,14.7
12.5,14.59,14.59,14.63,14.63,14.85,14.85,14.67
12.6,14.53,14.53,14.57,14.57,14.82,14.82,14.64
12.7,14.49,14.49,14.52,14.52,14.79,14.79,14.61
12.8,14.44,14.44,14.46,14.46,14.76,14.76,14.57
12.9,14.39,14.39,14.4,14.4,14.73,14.73,14.54
13,14.33,14.33,14.34,14.34,14.69,14.69,14.49
13.1,14.28,14.28,14.28,14.28,14.65,14.65,14.45
13.2,14.22,14.22,14.21,14.21,14.61,14.61,14.41
13.3,14.17,14.17,14.15,14.15,14.56,14.56,14.36
13.4,14.11,14.11,14.09,14.09,14.52,14.52,14.31
13.5,14.06,14.06,14.01,14.01,14.48,14.48,14.27
13.6,14.01,14.01,13.94,13.94,14.43,14.43,14.22
13.7,13.96,13.96,13.87,13.87,14.39,14.39,14.17
13.8,13.91,13.91,13.8,13.8,14.33,14.33,14.11
13.9,13.86,13.86,13.71,13.71,14.28,14.28,14.06
14,13.82,13.82,13.61,13.61,14.22,14.22,14.01
14.1,13.77,13.77,13.52,13.52,14.16,14.16,13.95
14.2,13.73,13.73,13.43,13.43,14.1,14.1,13.9
14.3,13.68,13.68,13.33,13.33,14.04,14.04,13.84
14.4,13.64,13.64,13.22,13.22,13.97,13.97,13.78
14.5,13.61,13.61,13.12,13.12,13.91,13.91,13.73
14.6,13.56,13.56,13.02,13.02,13.83,13.83,13.66
14.7,13.52,13.52,12.91,12.91,13.76,13.76,13.6
14.8,13.47,13.47,12.79,12.79,13.69,13.69,13.53
14.9,13.42,13.42,12.67,12.67,13.6,13.6,13.46
15,13.37,13.37,12.56,12.56,13.52,13.52,13.39
15.1,13.34,13.34,12.45,12.45,13.44,13.44,13.32
15.2,13.3,13.3,12.33,12.33,13.35,13.35,13.25
15.3,13.26,13.26,12.22,12.22,13.27,13.27,13.18
15.4,13.2,13.2,12.1,12.1,13.19,13.19,13.1
15.5,13.15,13.15,11.97,11.97,13.11,13.11,13.03
15.6,13.07,13.07,11.84,11.84,13.02,13.02,12.95
15.7,12.99,12.99,11.68,11.68,12.91,12.91,12.87
15.8,12.89,12.89,11.53,11.53,12.8,12.8,12.79
15.9,12.81,12.81,11.39,11.39,12.69,12.69,12.71
16,12.74,12.74,11.24,11.24,12.58,12.58,12.63
16.1,12.67,12.67,11.1,11.1,12.46,12.46,12.56
16.2,12.6,12.6,10.96,10.96,12.35,12.35,12.48
16.3,12.52,12.52,10.81,10.81,12.24,12.24,12.4
16.4,12.45,12.45,10.67,10.67,12.12,12.12,12.32
16.5,12.38,12.38,10.53,10.53,12.01,12.01,12.24
16.6,12.31,12.31,10.38,10.38,11.9,11.9,12.16
16.7,12.24,12.24,10.24,10.24,11.78,11.78,12.08
16.8,12.16,12.16,10.1,10.1,11.67,11.67,12.01
16.9,12.09,12.09,9.95,9.95,11.56,11.56,11.93
17,12.02,12.02,9.81,9.81,11.44,11.44,11.85
17.1,11.95,11.95,9.67,9.67,11.33,11.33,11.77
17.2,11.87,11.87,9.52,9.52,11.22,11.22,11.69
17.3,11.8,11.8,9.38,9.38,11.1,11.1,11.61
17.4,11.73,11.73,9.24,9.24,10.99,10.99,11.53
17.5,11.66,11.66,9.09,9.09,10.88,10.88,11.46
17.6,11.59,11.59,8.95,8.95,10.77,10.77,11.38
17.7,11.51,11.51,8.81,8.81,10.65,10.65,11.3
17.8,11.44,11.44,8.66,8.66,10.54,10.54,11.22
17.9,11.37,11.37,8.52,8.52,10.43,10.43,11.14
18,11.3,11.3,8.38,8.38,10.31,10.31,11.06
18.1,11.23,11.23,8.23,8.23,10.2,10.2,10.98
18.2,11.15,11.15,8.09,8.09,10.09,10.09,10.91
18.3,11.08,11.08,7.95,7.95,9.97,9.97,10.83
18.4,11.01,11.01,7.8,7.8,9.86,9.86,10.75
18.5,10.94,10.94,7.66,7.66,9.75,9.75,10.67
18.6,10.86,10.86,7.52,7.52,9.63,9.63,10.59
18.7,10.79,10.79,7.38,7.38,9.52,9.52,10.51
18.8,10.72,10.72,7.23,7.23,9.41,9.41,10.43
18.9,10.65,10.65,7.09,7.09,9.29,9.29,10.36
19,10.58,10.58,6.95,6.95,9.18,9.18,10.28
19.1,10.5,10.5,6.8,6.8,9.07,9.07,10.2
19.2,10.43,10.43,6.66,6.66,8.95,8.95,10.12
19.3,10.36,10.36,6.52,6.52,8.84,8.84,10.04
19.4,10.29,10.29,6.37,6.37,8.73,8.73,9.96
19.5,10.22,10.22,6.23,6.23,8.61,8.61,9.88
19.6,10.14,10.14,6.09,6.09,8.5,8.5,9.81
19.7,10.07,10.07,5.94,5.94,8.39,8.39,9.73
19.8,10,10,5.8,5.8,8.27,8.27,9.65
19.9,9.93,9.93,5.66,5.66,8.16,8.16,9.57
20,9.85,9.85,5.51,5.51,8.05,8.05,9.49
